error,base
-0.0019864714704453945,0.00459764851257205
-0.027453837217763066,-0.027149278670549393
-0.016215720446780324,-0.017026113346219063
0.002044635941274464,-0.001148069859482348
0.00925289373844862,0.013730000704526901
0.023145154118537903,0.027460001409053802
0.03354864311404526,0.031395286321640015
0.043619530042633414,0.043879907578229904
0.023423905484378338,0.029885031282901764
-0.009880636353045702,-0.002257355023175478
-0.004551742458716035,-0.00668156985193491
0.016196161741390824,0.019165752455592155
-0.003967709606513381,-0.004424815531820059
0.047948134830221534,0.049107108265161514
0.0705029636155814,0.06900452077388763
0.03437316231429577,0.04147985577583313
0.07174725388176739,0.07522124797105789
0.06107917334884405,0.06666669249534607
0.016550598898902535,0.019148927181959152
0.01615201192907989,0.017989441752433777
0.04844054509885609,0.05059198662638664
-0.0006041307933628559,0.00514403497800231
-0.006035670638084412,0.0
0.024136229418218136,0.028183745220303535
0.0022451644763350487,0.008315995335578918
-0.016808120300993323,-0.01434422004967928
-0.02260114881210029,-0.022517936304211617
-0.003786735935136676,0.0
-0.022587931714951992,-0.027411194518208504
-0.012555005261674523,-0.012371155433356762
-0.017901437124237418,-0.014553053304553032
-0.022272564470767975,-0.014659642241895199
-0.037739119259640574,-0.036458346992731094
-0.03329487703740597,-0.027139853686094284
-0.034878640435636044,-0.027139853686094284
-0.035000274889171124,-0.030590681359171867
-0.01760354172438383,-0.00956433080136776
0.050209629349410534,0.05729730427265167
0.027826137375086546,0.03433479368686676
0.03078821348026395,0.03433479368686676
0.022015227936208248,0.03155599907040596
0.02370092272758484,0.03004291281104088
0.04825141723267734,0.049079760909080505
0.07666445057839155,0.07883816957473755
0.0670977106783539,0.0705394297838211
0.00688453484326601,0.012658249586820602
-0.061680375365540385,-0.05937495827674866
-0.11119146319106221,-0.1111111119389534
-0.12475264840759337,-0.1221153736114502
-0.11550488765351474,-0.11724807322025299
-0.07320541865192354,-0.07187498360872269
-0.004952314542606473,-0.003322330303490162
-0.007275004638358951,-0.0076754591427743435
-0.0694136107340455,-0.07776568830013275
-0.08483937638811767,-0.0856202095746994
-0.13595083262771368,-0.13019081950187683
-0.13140919990837574,-0.12333326786756516
-0.0731379333883524,-0.06740330904722214
0.03648429177701473,0.04394303262233734
0.05345110665075481,0.05402163043618202
0.11883797962218523,0.11096774786710739
0.09750898648053408,0.08745244145393372
0.03404287155717611,0.0201422069221735
-0.004455375485122204,-0.011376569047570229
-0.007924215169623494,-0.010250609368085861
-0.0278577518183738,-0.024390216916799545
-0.0021939289290457964,0.0
0.009093285305425525,0.012775810435414314
-0.017826880561187863,-0.014959711581468582
-0.01881988812237978,-0.010356681421399117
0.016120335087180138,0.023809533566236496
0.013946493854746222,0.01398603804409504
-0.003936264896765351,-0.0022935066372156143
0.0334043288603425,0.03738320991396904
0.08496168348938227,0.09302319586277008
0.14699063333682716,0.14651155471801758
0.12684778776019812,0.134482741355896
0.07562229596078396,0.09195396304130554
0.060862379148602486,0.08108104020357132
0.03000270016491413,0.04680856317281723
-0.026329541578888893,-0.01825557090342045
0.008232679218053818,0.012157995253801346
0.04416685062460601,0.04210527986288071
0.05288030859082937,0.04583330452442169
0.03208524524234235,0.028455279767513275
0.0748541362117976,0.07438021153211594
0.09597442741505802,0.09509513527154922
0.07046107086353004,0.06666666269302368
0.01658449391834438,0.01992032676935196
0.036801196401938796,0.03557310625910759
0.004508364014327526,0.0
-0.03750570653937757,-0.04021935164928436
-0.01844573183916509,-0.01515149138867855
0.011225275928154588,0.009765629656612873
-0.005875619361177087,-0.007633575703948736
0.003549158340319991,0.0038461098447442055
-0.03307393682189286,-0.030715713277459145
-0.018317703856155276,-0.015570642426609993
-0.018634331412613392,-0.013764124363660812
-0.017287046648561954,-0.011687292717397213
-0.03554499987512827,-0.025145066902041435
0.012677768245339394,0.02380952425301075
0.012321045156568289,0.017751479521393776
0.014650168363004923,0.015841584652662277
0.0020698546431958675,0.007858546450734138
0.01851851399987936,0.02380952425301075
-0.020303753204643726,-0.00968992244452238
-0.015050176531076431,-0.0058139534667134285
-0.009840837679803371,-0.001949317753314972
-0.007342173485085368,-0.003898635506629944
-0.0077051687985658646,-0.0038759689778089523
0.0022897636517882347,0.00978473573923111
0.0008163703605532646,0.005847953259944916
0.009470370598137379,0.015625
0.0064682611264288425,0.00978473573923111
0.009392342297360301,0.011673151515424252
0.00320503581315279,0.007751937955617905
0.007617536466568708,0.011627906933426857
0.007883423008024693,0.011538461782038212
0.017390556633472443,0.021317830309271812
-0.007181449909694493,-0.001923076924867928
-0.005212073214352131,-0.003846153849735856
-0.00880680582486093,-0.005747126415371895
-0.018060065107420087,-0.015209125354886055
-0.021833964623510838,-0.017077798023819923
-0.005858750781044364,-0.003853564616292715
0.002062932588160038,0.0038610037881881
0.004140123026445508,0.005780346691608429
0.002430842723697424,0.0038610037881881
0.0005076667293906212,0.0038610037881881
-0.002550786128267646,0.0038684720639139414
-0.0070039109559729695,-0.001923076924867928
-0.02780216373503208,-0.02298850566148758
-0.031911607133224607,-0.028846153989434242
-0.004529901780188084,0.0
0.01213948312215507,0.01541425846517086
0.040029365569353104,0.04624277353286743
0.047147746197879314,0.054901961237192154
0.0352236432954669,0.041584160178899765
0.004576850915327668,0.007692307699471712
0.019933630479499698,0.02277039922773838
-0.020019645104184747,-0.0220994483679533
-0.01612204289995134,-0.014869888313114643
0.04078316665254533,0.03802281245589256
0.03312288620509207,0.030534351244568825
0.020196104887872934,0.020408162847161293
0.031615375308319926,0.033898305147886276
0.02133153798058629,0.024528302252292633
-0.03518606093712151,-0.032967034727334976
-0.0002971941139549017,0.0
-0.032869535963982344,-0.03272727131843567
-0.03831995581276715,-0.040072858333587646
-0.030134693952277303,-0.03130755200982094
-0.00475582224316895,-0.005681818351149559
-0.02899380843155086,-0.031481482088565826
0.011505197966471314,0.011278195306658745
0.03757571871392429,0.03795066475868225
0.036539399065077305,0.039923954755067825
0.016542747616767883,0.024761904031038284
0.051605964079499245,0.05927342176437378
0.009123160503804684,0.02044609747827053
-0.00990920141339302,-0.0036563072353601456
-0.011814619414508343,-0.005484460853040218
0.014524092664942145,0.013011152856051922
-0.018202294362708926,-0.014440433122217655
-0.025656548561528325,-0.02914389781653881
-0.010729644680395722,-0.00917431153357029
-0.03022568579763174,-0.02389705926179886
-0.03224172070622444,-0.020183486863970757
-0.0352517943829298,-0.025641025975346565
-0.009974958375096321,0.0
-0.02604008838534355,-0.01666666753590107
-0.008173757581971586,0.0018832391360774636
-0.011805173009634018,-0.00749063678085804
-0.01643300987780094,-0.00939849577844143
-0.008694313233718276,-0.007504690438508987
-0.007965435390360653,-0.0018832391360774636
-0.017492939718067646,-0.01315789483487606
-0.015860911458730698,-0.009433962404727936
-0.011947959661483765,-0.005692599806934595
-0.01808146759867668,-0.009451796300709248
-0.022975867614150047,-0.016981132328510284
-0.016706089489161968,-0.009523809887468815
-0.018199865706264973,-0.011428571306169033
-0.03545840084552765,-0.02671755664050579
-0.03969945898279548,-0.03244274854660034
-0.025891952216625214,-0.021113242954015732
-0.030796093633398414,-0.026923077180981636
-0.024198496947064996,-0.02504817023873329
-0.05643484857864678,-0.05882352963089943
-0.0241931916680187,-0.023668639361858368
-0.03034399449825287,-0.02450980432331562
-0.0282053891569376,-0.021739130839705467
-0.035230240086093545,-0.03162055462598801
0.015366691164672375,0.01979166641831398
-0.014707606052979827,-0.011111111380159855
-0.019642871571704745,-0.01909547671675682
-0.017172109568491578,-0.019191918894648552
0.023414959898218513,0.022448979318141937
0.0235122162848711,0.01123595517128706
0.008450810797512531,0.0
0.007158695021644235,0.0010245901066809893
0.011256666854023933,0.01853759028017521
-0.03233916196040809,-0.028942115604877472
-0.012827529571950436,-0.004040404222905636
0.007779555628076196,0.006128702778369188
0.004579994827508926,0.012282497249543667
-0.03501567244529724,-0.02932254783809185
-0.01714838540647179,0.0010277492692694068
-0.0329527398571372,-0.020283976569771767
-0.03248911630362272,-0.017258882522583008
-0.05317544937133789,-0.044489383697509766
-0.027795705012977123,-0.015625
-0.061492507345974445,-0.0533880889415741
-0.030653702095150948,-0.020703934133052826
-0.027859098510816693,-0.028925620019435883
-0.004884831374511123,0.0031746032182127237
0.0008032182231545448,0.005291005130857229
0.020462755113840103,0.03253795951604843
0.03805075213313103,0.04228329658508301
0.06341759953647852,0.07234042882919312
0.058310623513534665,0.0569620244204998
0.050651563331484795,0.05473684147000313
0.05332125071436167,0.054621849209070206
-0.012439091922715306,-0.0020283975172787905
-0.02372973528690636,-0.02579365111887455
-0.030421139672398567,-0.027944112196564674
-0.019907252164557576,-0.02195608802139759
-0.036795142106711864,-0.03187251091003418
-0.015671246219426394,-0.013211382552981377
-0.0072968159802258015,-0.0020366599783301353
0.01578755723312497,0.018480492755770683
0.0054718018509447575,0.010204081423580647
0.019365397281944752,0.02674897201359272
0.02655781712383032,0.03604531288146973
0.01820092462003231,0.02448979578912258
0.006176934344694018,0.010080644860863686
0.025113504147157073,0.02222222276031971
0.01305155479349196,0.012024047784507275
0.006184426369145513,0.007952285930514336
0.019567636772990227,0.029880478978157043
0.03938972856849432,0.04790419340133667
0.018311457708477974,0.02964426949620247
0.014700212515890598,0.02574257366359234
0.03488204372115433,0.03550295904278755
0.014027529628947377,0.015473888255655766
-0.002980760531499982,0.0
-0.005350323859602213,0.003838771488517523
0.02196355047635734,0.025096524506807327
0.016817294294014573,0.013333333656191826
0.020847349427640438,0.022857142612338066
0.027869953773915768,0.032380953431129456
0.035257773008197546,0.042065009474754333
1.0933727025985718e-06,0.009416195563971996
-0.003358517773449421,0.007518797181546688
-0.012621159898117185,-0.0018621974159032106
-0.014891063794493675,-0.009225091896951199
-0.014796730363741517,-0.011009174399077892
-0.0016756044933572412,0.0018656715983524919
-0.0008348503615707159,0.0037313431967049837
-0.003246959066018462,0.0037313431967049837
0.0046151177957654,0.00931098684668541
-0.0024402086855843663,0.001855287584476173
0.0022444427013397217,0.0074487896636128426
0.00023206230252981186,0.005576208233833313
0.002259794156998396,0.0074349441565573215
-0.007872930262237787,-0.0018450184725224972
-0.007098931819200516,0.0
-0.007477645995095372,-0.00554528646171093
-0.0053093647584319115,-0.0036968577187508345
-0.009725154610350728,-0.007380073890089989
-0.01776883751153946,-0.012939001433551311
-0.010004124138504267,-0.0055555556900799274
-0.0022521758219227195,0.0018587360391393304
-0.003745228284969926,0.0
-0.003405993222258985,0.0018587360391393304
0.007129105739295483,0.01123595517128706
-0.0005695237778127193,0.005586592014878988
-0.001897058798931539,0.001855287584476173
0.0006081969477236271,0.005565862637013197
0.00419272412545979,0.007421150337904692
-0.0053543709218502045,-0.0018518518190830946
-0.009539473336189985,-0.0055555556900799274
0.04597503109835088,0.04444444552063942
0.04607981885783374,0.04612546041607857
0.03332878998480737,0.033149171620607376
0.016930641373619437,0.020408162847161293
0.029419961385428905,0.0353817492723465
-0.01098487013950944,-0.005319148767739534
-0.031358409905806184,-0.028218694031238556
-0.018451563315466046,-0.019607843831181526
-0.007004429819062352,-0.00909090880304575
-0.023157796123996377,-0.02158273383975029
-0.020865290658548474,-0.019607843831181526
0.0011466681025922298,0.0018148820381611586
-0.00951248244382441,-0.00909090880304575
0.002438118914142251,0.005504587199538946
0.006906899623572826,0.011029412038624287
-0.006559581262990832,-0.005454545374959707
0.0077688617166131735,0.009057970717549324
